"Time (s)","Linear Acceleration x (m/s^2)","Linear Acceleration y (m/s^2)","Linear Acceleration z (m/s^2)","Absolute acceleration (m/s^2)"
1.057404167E-2,8.484766579E0,-4.409834974E0,6.699675375E0,1.167576801E1
2.054104167E-2,7.127409725E0,-1.802282603E0,7.290376303E0,1.035363601E1
3.050804167E-2,5.970594242E0,-1.755240583E-1,7.726369261E0,9.766042507E0
4.047404167E-2,5.351185239E0,7.553784013E-1,7.893165765E0,9.565973332E0
5.044104167E-2,5.168839234E0,1.413942699E0,7.960848455E0,9.596418140E0
6.040704167E-2,5.052032331E0,1.849757316E0,7.427468952E0,9.171255521E0
7.037404167E-2,5.226420275E0,1.784870179E0,6.097430874E0,8.226779061E0
8.034104167E-2,5.769504402E0,7.596778589E-1,4.193756382E0,7.172996870E0
9.030804167E-2,6.324962992E0,-6.941831964E-1,2.320714577E0,6.772943474E0
1.002740417E-1,6.459744821E0,-1.779536349E0,1.011375423E0,6.776277224E0
1.102410417E-1,5.823338547E0,-2.546773489E0,-6.441339540E-1,6.388445475E0
1.202070417E-1,4.448314916E0,-3.379626912E0,-2.547347685E0,6.139899339E0
1.301740417E-1,2.776996495E0,-3.878859846E0,-3.845793257E0,6.127592432E0
1.401410417E-1,1.139490768E0,-3.909181167E0,-4.285831903E0,5.911724935E0
1.501080417E-1,-5.263148975E-1,-3.159361714E0,-4.263741707E0,5.332735429E0
1.600740417E-1,-2.017958906E0,-2.008504543E0,-4.011648359E0,4.919305968E0
1.700410417E-1,-2.985415819E0,-1.031025503E0,-3.562351817E0,4.760889798E0
1.800080417E-1,-3.451942352E0,-2.928221279E-1,-2.618176762E0,4.342407208E0
1.899740417E-1,-3.572362250E0,1.579034740E-1,-1.375501495E0,3.831280454E0
1.999410417E-1,-3.495381902E0,2.571383250E-1,-4.305989009E-1,3.531179714E0
2.099070417E-1,-3.355287877E0,2.736859453E-1,2.223953390E-1,3.373769468E0
2.198740417E-1,-3.000531456E0,4.264321750E-1,6.023170797E-1,3.089954577E0
2.298414167E-1,-2.577708768E0,8.524579686E-1,6.882066842E-1,2.800874063E0
2.398074167E-1,-2.383302881E0,1.458009655E0,5.709103688E-1,2.851642233E0
2.497744167E-1,-2.129751822E0,1.829830005E0,1.850947809E-1,2.813961754E0
2.597414167E-1,-1.939954126E0,1.871739923E0,-1.341309609E-1,2.699041212E0
2.697074167E-1,-1.990361218E0,1.835812292E0,-3.266862043E-1,2.727355573E0
2.796744167E-1,-2.007621614E0,1.750332431E0,-7.046795332E-1,2.755137275E0
2.896414167E-1,-2.061786126E0,1.599067593E0,-1.030065390E0,2.805176270E0
2.996074167E-1,-2.180714985E0,1.482047851E0,-1.170474579E0,2.884786719E0
3.095744167E-1,-2.150597731E0,1.352489632E0,-1.180379178E0,2.801355709E0
3.195414167E-1,-1.875202060E0,1.074206021E0,-1.232126452E0,2.487656916E0
3.295074167E-1,-1.510412402E0,6.487772280E-1,-1.248392236E0,2.064156169E0
3.394744167E-1,-1.233674210E0,1.998873594E-1,-1.136215743E0,1.689050984E0
3.494414167E-1,-1.029347937E0,-2.340388995E-1,-1.002319182E0,1.455669991E0
3.594074167E-1,-9.348639482E-1,-5.759820244E-1,-7.679931843E-1,1.339977397E0
3.693744167E-1,-9.613904268E-1,-7.627675277E-1,-5.825768065E-1,1.358485035E0
3.793414167E-1,-9.806944245E-1,-8.660851970E-1,-3.839656019E-1,1.363559572E0
3.893074167E-1,-8.977352983E-1,-1.105261168E0,-1.281709488E-1,1.429670839E0
3.992744167E-1,-6.324564797E-1,-1.379354664E0,1.159070170E-1,1.521859036E0
4.092414167E-1,-3.051749557E-1,-1.517831349E0,3.751269507E-1,1.593004704E0
4.192074167E-1,-1.936609519E-1,-1.648711623E0,5.925474787E-1,1.762630731E0
4.291744167E-1,-1.451951355E-1,-1.888483718E0,7.112646675E-1,2.023202859E0
4.391414167E-1,-5.408148229E-2,-2.098308128E0,7.956095839E-1,2.244730811E0
4.491074167E-1,5.430250704E-2,-2.353229773E0,7.810055780E-1,2.480042105E0
4.590744167E-1,1.306273824E-1,-2.692414182E0,7.629464525E-1,2.801471922E0
4.690414167E-1,1.675776923E-1,-2.912837255E0,6.146435219E-1,2.981692442E0
4.790074167E-1,2.339704871E-1,-3.035945995E0,2.462291747E-1,3.054887736E0
4.889744167E-1,4.206527871E-1,-3.141091504E0,-1.508886059E-1,3.172723117E0
4.989414167E-1,5.638721484E-1,-3.023508967E0,-4.963169636E-1,3.115427548E0
5.089074167E-1,6.881634879E-1,-2.729863844E0,-8.076145023E-1,2.928816617E0
5.188744167E-1,9.704881096E-1,-2.477764065E0,-9.373063302E-1,2.821294931E0
5.288414167E-1,1.300985017E0,-2.385186561E0,-9.349656167E-1,2.873297348E0
5.388074167E-1,1.723104286E0,-2.386912659E0,-9.285484437E-1,3.086849954E0
5.487744167E-1,2.118518736E0,-2.396542585E0,-9.752582681E-1,3.344049444E0
5.587414167E-1,2.142554301E0,-2.301304159E0,-9.493458203E-1,3.284478232E0
5.687074167E-1,1.804943671E0,-2.171529301E0,-7.543013442E-1,2.922726754E0
5.786744167E-1,1.366229419E0,-2.071683416E0,-4.248072338E-1,2.517720435E0
5.886414167E-1,8.668812954E-1,-1.908505754E0,-3.558388866E-2,2.096459779E0
5.986074167E-1,3.940193045E-1,-1.860076044E0,3.687253460E-1,1.936773730E0
6.085744167E-1,1.547822303E-1,-2.030355734E0,6.025905832E-1,2.123538876E0
6.185414167E-1,2.616044283E-3,-2.328807415E0,6.922810972E-1,2.429527514E0
6.285074167E-1,-1.337082803E-1,-2.753422568E0,6.790447551E-1,2.839069482E0
6.384744167E-1,-2.849815965E-1,-3.278444354E0,5.682033272E-1,3.339500998E0
6.484414167E-1,-4.456110424E-1,-3.837314794E0,4.492811935E-1,3.889139702E0
6.584074167E-1,-6.584005755E-1,-4.419144326E0,4.013428690E-1,4.485911724E0
6.683744167E-1,-9.489224088E-1,-4.842228386E0,4.276361167E-1,4.952827690E0
6.783414167E-1,-1.266930833E0,-4.983272583E0,5.376251668E-1,5.169831737E0
6.883074167E-1,-1.540069479E0,-4.914721581E0,6.398513802E-1,5.189962621E0
6.982744167E-1,-1.714749784E0,-4.746713533E0,7.089526054E-1,5.096495854E0
7.082414167E-1,-1.826728642E0,-4.514062763E0,7.861762708E-1,4.932724733E0
7.182074167E-1,-1.753130323E0,-4.266434934E0,8.858355566E-1,4.696875303E0
7.281744167E-1,-1.506383670E0,-3.928713499E0,1.023948033E0,4.330410037E0
7.381414167E-1,-1.394185542E0,-3.401587300E0,1.037679634E0,3.819859750E0
7.481074167E-1,-1.334828702E0,-2.874691190E0,9.996790912E-1,3.323398168E0
7.580744167E-1,-1.204684299E0,-2.359983600E0,8.793294328E-1,2.791774902E0
7.680414167E-1,-1.110349415E0,-1.770132857E0,7.226502927E-1,2.210988376E0
7.780074167E-1,-1.094833828E0,-1.162692228E0,5.746959293E-1,1.697288938E0
7.879744167E-1,-1.128600914E0,-6.345509523E-1,4.030123222E-1,1.356028711E0
7.979414167E-1,-1.356092686E0,-1.489110410E-1,2.703892851E-1,1.390781161E0
8.079074167E-1,-1.755798408E0,2.901674920E-1,1.852291207E-1,1.789227501E0
8.178744167E-1,-2.165073098E0,5.697219953E-1,7.252995931E-2,2.239952068E0
8.278414167E-1,-2.593898538E0,7.139093632E-1,-3.665385604E-2,2.690598393E0
8.378074167E-1,-3.001847080E0,7.980858797E-1,-1.304350090E-1,3.108864786E0
8.477744167E-1,-3.383591325E0,8.406600416E-1,-2.395522392E-1,3.494679504E0
8.577414167E-1,-3.764854928E0,8.229602274E-1,-3.979539690E-1,3.874243607E0
8.677074167E-1,-4.113707415E0,8.076177183E-1,-5.914342419E-1,4.233748876E0
8.776744167E-1,-4.418015814E0,6.987191740E-1,-8.187715014E-1,4.547247408E0
8.876414167E-1,-4.707541282E0,6.074970549E-1,-1.096579880E0,4.871599842E0
8.976074167E-1,-4.963535306E0,5.791848367E-1,-1.385797711E0,5.185804963E0
9.075744167E-1,-5.227948737E0,5.353962082E-1,-1.674649580E0,5.515663905E0
9.175414167E-1,-5.455155165E0,4.195190120E-1,-1.925232006E0,5.800106237E0
9.275074167E-1,-5.635485635E0,2.688412347E-1,-2.120980414E0,6.027398433E0
9.374744167E-1,-5.777223896E0,6.886002749E-2,-2.262995395E0,6.205014570E0
9.474414167E-1,-5.799421096E0,-2.717177725E-1,-2.374031682E0,6.272411181E0
9.574074167E-1,-5.734381932E0,-7.629572698E-1,-2.435601108E0,6.276734238E0
9.673744167E-1,-5.579975093E0,-1.268742593E0,-2.479608861E0,6.236528675E0
9.773414167E-1,-5.302402503E0,-1.752793816E0,-2.469168658E0,6.106107789E0
9.873074167E-1,-4.828935910E0,-2.394401773E0,-2.494670119E0,5.939289594E0
9.972744167E-1,-4.310881959E0,-3.044691091E0,-2.562474432E0,5.866866482E0
1.007241417E0,-3.754909984E0,-3.525375487E0,-2.559177187E0,5.751261530E0
1.017207417E0,-3.019851242E0,-4.156454947E0,-2.487169896E0,5.708032353E0
1.027174417E0,-2.293190855E0,-5.050666421E0,-2.305056756E0,6.006766372E0
1.037141417E0,-1.572359558E0,-5.684115758E0,-2.101467086E0,6.260802700E0
1.047107417E0,-7.845647782E-1,-6.100659707E0,-1.806221287E0,6.410618230E0
1.057074417E0,-2.460753930E-1,-6.119302969E0,-1.511873767E0,6.308104645E0
1.067041417E0,1.876289642E-1,-6.028779885E0,-1.273744740E0,6.164723610E0
1.077007417E0,9.241284603E-1,-6.316010905E0,-9.922982240E-1,6.459927471E0
1.086974417E0,2.002816957E0,-6.830159501E0,-5.607528050E-1,7.139803798E0
1.096941417E0,2.930464856E0,-7.070457845E0,-1.189675958E-1,7.654616365E0
1.106907417E0,3.733305691E0,-7.154944264E0,2.682795366E-1,8.074823386E0
1.116874417E0,4.451889904E0,-7.316826183E0,5.456679388E-1,8.582133919E0
1.126841417E0,5.066067402E0,-7.501936752E0,8.831377244E-1,9.095274938E0
1.136807417E0,5.264009101E0,-6.914506171E0,1.360448277E0,8.796079065E0
1.146774417E0,4.962371126E0,-5.123417478E0,2.062608830E0,7.424883099E0
1.156741417E0,4.619958762E0,-2.921142640E0,2.795471942E0,6.139361259E0
1.166707417E0,4.669356624E0,-1.489036735E0,3.545447516E0,6.048993286E0
1.176674417E0,5.054957108E0,-5.457013410E-1,4.060360343E0,6.506681753E0
1.186641417E0,5.677935836E0,1.124460500E-1,4.263070446E0,7.101082248E0
1.196607417E0,6.505190551E0,2.405983061E-1,4.263068107E0,7.781332876E0
1.206574417E0,7.250704114E0,2.195430672E-1,4.047440336E0,8.306785334E0
1.216541417E0,7.694928197E0,-6.462331045E-1,3.689497182E0,8.558149721E0
1.226507000E0,7.538660190E0,-1.789110580E0,3.115656116E0,8.351025515E0
1.236474000E0,6.840474574E0,-2.337764180E0,2.708102846E0,7.719524259E0
1.246441000E0,5.685938335E0,-1.773187442E0,2.377594829E0,6.413037161E0
1.256407000E0,4.362068485E0,-8.220682347E-1,2.022491083E0,4.877899941E0
1.266374000E0,3.215683265E0,-3.092364317E-1,1.701881232E0,3.651389565E0
1.276340000E0,2.140577942E0,2.259311503E-1,1.525006467E0,2.637946841E0
1.286307000E0,1.199084421E0,8.474194229E-1,1.480471734E0,2.085118625E0
1.296274000E0,4.963122493E-1,1.444116670E0,1.582167678E0,2.198875478E0
1.306241000E0,3.848520398E-2,1.949734764E0,1.756015924E0,2.624221539E0
1.316207000E0,-2.427670383E-1,2.494115219E0,2.118193631E0,3.281202648E0
1.326174000E0,-3.617110991E-1,3.151634034E0,2.574380533E0,4.085470246E0
1.336140000E0,-4.065522265E-1,3.807895698E0,2.917985144E0,4.814560381E0
1.346107000E0,-4.554887438E-1,4.296919978E0,3.077034087E0,5.304632887E0
1.356074000E0,-4.748295790E-1,4.629736476E0,3.113400260E0,5.599391409E0
1.366040000E0,-4.627299356E-1,4.924903922E0,3.090826499E0,5.832838596E0
1.376007000E0,-4.818322045E-1,5.150807590E0,2.958977634E0,5.959742423E0
1.385974000E0,-5.695714295E-1,5.238697089E0,2.778343109E0,5.957142707E0
1.395940000E0,-5.930070698E-1,5.181933489E0,2.499382975E0,5.783684580E0
1.405907000E0,-5.903237826E-1,5.136990620E0,2.219421798E0,5.626987464E0
1.415874000E0,-5.804735631E-1,5.060062312E0,1.907835370E0,5.438843255E0
1.425840000E0,-6.708107060E-1,4.886048005E0,1.611860424E0,5.188597704E0
1.435807000E0,-7.914680010E-1,4.740972152E0,1.333773864E0,4.988205215E0
1.445774000E0,-8.251146340E-1,4.526848869E0,1.065285509E0,4.723135406E0
1.455740000E0,-8.819267660E-1,4.238206331E0,8.537993199E-1,4.412387223E0
1.465707000E0,-9.112254095E-1,4.096759846E0,6.701891470E-1,4.250050173E0
1.475674000E0,-9.171310973E-1,4.094723260E0,5.555989595E-1,4.232797920E0
1.485640000E0,-9.080901325E-1,4.036731160E0,5.074371618E-1,4.168611114E0
1.495607000E0,-8.317611641E-1,3.960346643E0,5.352758286E-1,4.081996127E0
1.505574000E0,-6.710831863E-1,3.943537652E0,5.913990490E-1,4.043710511E0
1.515540000E0,-4.572937793E-1,3.871125734E0,6.531574503E-1,3.952384939E0
1.525507000E0,-1.611907786E-1,3.624846858E0,7.645878390E-1,3.708111618E0
1.535474000E0,1.368213379E-1,3.305540936E0,9.169632822E-1,3.433095195E0
1.545440000E0,5.433998770E-1,2.826611874E0,1.013692674E0,3.051653806E0
1.555407000E0,1.071214585E0,2.135545244E0,1.026020871E0,2.600148650E0
1.565374000E0,1.721127343E0,1.399635732E0,1.001635131E0,2.434036246E0
1.575340000E0,2.368479604E0,6.877764022E-1,9.846618334E-1,2.655614984E0
1.585307000E0,3.047193407E0,3.559258640E-2,9.597825155E-1,3.194970574E0
1.595274000E0,3.695057884E0,-4.597490251E-1,8.639395612E-1,3.822461707E0
1.605240000E0,4.139133448E0,-6.199299896E-1,8.035384083E-1,4.261738245E0
1.615207000E0,4.705065570E0,-6.313168573E-1,6.658885199E-1,4.793705302E0
1.625174000E0,5.539337529E0,-1.018710682E0,4.261146712E-1,5.648327666E0
1.635140000E0,6.335672168E0,-1.378540147E0,2.688057860E-1,6.489481590E0
1.645107000E0,6.935016450E0,-1.392552415E0,1.139487114E-1,7.074364968E0
1.655074000E0,7.346325971E0,-1.373540778E0,-7.037825704E-2,7.473959636E0
1.665040000E0,7.532168026E0,-1.261716287E0,-1.554032046E-1,7.638693168E0
1.675007000E0,7.711674623E0,-1.163984170E0,-1.178916351E-1,7.799915581E0
1.684974000E0,7.918770137E0,-1.008128976E0,1.850570664E-3,7.982684257E0
1.694940000E0,8.103953211E0,-6.712287819E-1,1.203730472E-1,8.132594629E0
1.704907000E0,8.312084852E0,-5.212026769E-1,1.198200468E-1,8.329271497E0
1.714874000E0,8.490755882E0,-6.623258114E-1,3.892498769E-2,8.516638192E0
1.724840000E0,8.539647961E0,-1.162075054E0,-1.256508172E-2,8.618362002E0
1.734807000E0,8.363639168E0,-2.035133348E0,-7.755286373E-2,8.608033592E0
1.744774000E0,7.863782337E0,-2.953111707E0,-1.939007608E-1,8.402234161E0
1.754740000E0,7.056773021E0,-3.721664470E0,-3.257512345E-1,7.984669421E0
1.764707000E0,5.843274044E0,-4.560480884E0,-9.457743410E-1,7.472370879E0
1.774674000E0,4.330804008E0,-4.427024619E0,1.172657857E0,6.303137059E0
1.784640000E0,3.957856899E0,-3.868675750E0,9.313619777E-1,5.612371908E0
1.794607000E0,3.075522582E0,-4.398306019E0,-4.148949607E-1,5.382942766E0
1.804574000E0,2.122949756E0,-3.663791068E0,3.059110836E-1,4.245451949E0
1.814540000E0,1.920163640E0,-3.030841668E0,4.474991814E-1,3.615699813E0
1.824507000E0,1.665249596E0,-2.995180085E0,6.556880522E-1,3.489138400E0
1.834474000E0,1.317992229E0,-2.368533399E0,8.635530603E-1,2.844780811E0
1.844440000E0,9.966415358E-1,-1.677483140E0,1.002234982E0,2.193563082E0
1.854407000E0,6.779361230E-1,-1.200780113E0,1.100525508E0,1.764263773E0
1.864374000E0,4.271297479E-1,-8.535642618E-1,1.174337835E0,1.513301398E0
1.874340000E0,1.033238089E-1,-5.270943314E-1,1.277484473E0,1.385810529E0
1.884307000E0,-2.550146163E-1,-3.287854278E-1,1.269849764E0,1.336282430E0
1.894274000E0,-5.826902425E-1,-2.794553930E-1,1.236013681E0,1.394759138E0
1.904240000E0,-8.844580257E-1,-3.413581109E-1,1.156241141E0,1.495220698E0
1.914207000E0,-1.188330222E0,-5.455563301E-1,9.971204958E-1,1.644387335E0
1.924173000E0,-1.624217929E0,-8.780635107E-1,8.207631361E-1,2.020577030E0
1.934140000E0,-2.185282245E0,-1.214556738E0,6.575918325E-1,2.585156393E0
1.944107000E0,-2.713723775E0,-1.524918759E0,5.005216599E-1,3.152807618E0
1.954073000E0,-3.193991849E0,-1.842319073E0,3.826663506E-1,3.707041547E0
1.964040000E0,-3.668572336E0,-2.151754895E0,2.859270912E-1,4.262654855E0
1.974007000E0,-4.127681091E0,-2.408655823E0,2.615553117E-1,4.786207815E0
1.983973000E0,-4.556249839E0,-2.680700747E0,2.666674592E-1,5.293078558E0
1.993940000E0,-4.970711594E0,-2.994063851E0,2.838729278E-1,5.809731142E0
2.003907000E0,-5.367194331E0,-3.307689788E0,3.410493779E-1,6.313786613E0
2.013873000E0,-5.754261296E0,-3.600857778E0,4.103084779E-1,6.800445048E0
2.023840000E0,-6.084683944E0,-3.906163419E0,4.583001216E-1,7.245103889E0
2.033807000E0,-6.393425117E0,-4.241236066E0,4.624621332E-1,7.686210985E0
2.043773000E0,-6.709467123E0,-4.526928391E0,4.783092205E-1,8.107947301E0
2.053740000E0,-6.965075231E0,-4.749779521E0,4.611394564E-1,8.443063903E0
2.063707000E0,-7.125669594E0,-5.011930372E0,3.719822816E-1,8.719689446E0
2.073673000E0,-7.187130262E0,-5.376700734E0,2.668043206E-1,8.979695804E0
2.083640000E0,-7.214037395E0,-5.689823810E0,1.764327522E-1,9.189535300E0
2.093607000E0,-7.168474721E0,-5.880015024E0,7.794689298E-2,9.271875874E0
2.103573000E0,-7.014208215E0,-6.184649112E0,-5.966970284E-2,9.351607455E0
2.113540000E0,-6.818032376E0,-6.496087021E0,-2.132456525E-1,9.419670151E0
2.123507000E0,-6.716529390E0,-6.583619839E0,-2.944290159E-1,9.409702741E0
2.133473000E0,-6.648852546E0,-6.642429380E0,-3.919184730E-1,9.406524775E0
2.143440000E0,-6.707660918E0,-6.500013426E0,-4.482230667E-1,9.351138617E0
2.153407000E0,-6.758212436E0,-6.192570920E0,-4.236354518E-1,9.176101401E0
2.163373000E0,-6.516710150E0,-6.069013406E0,-3.667303491E-1,8.912627337E0
2.173340000E0,-5.961063865E0,-6.210894924E0,-3.404231411E-1,8.615415607E0
2.183307000E0,-5.137625628E0,-6.426382363E0,-3.708460580E-1,8.235964677E0
2.193273000E0,-4.239444187E0,-6.604777404E0,-4.615195620E-1,7.861868218E0
2.203240000E0,-3.375598181E0,-6.967005397E0,-6.054373001E-1,7.765332035E0
2.213207000E0,-2.856760118E0,-7.191009305E0,-7.237287386E-1,7.771452662E0
2.223173000E0,-2.758188341E0,-7.034196922E0,-8.277714626E-1,7.600837773E0
2.233139500E0,-2.723704972E0,-6.784984497E0,-9.325374142E-1,7.370495874E0
2.243106500E0,-2.333841868E0,-6.665801870E0,-8.669129435E-1,7.115565367E0
2.253072500E0,-1.652165281E0,-6.625655472E0,-5.688960761E-1,6.852196969E0
2.263039500E0,-8.708421993E-1,-6.653816832E0,-2.119843715E-1,6.713909587E0
2.273005500E0,4.331231439E-1,-7.171532815E0,2.136280239E-2,7.184631858E0
2.282972500E0,1.905874214E0,-7.973103050E0,1.047908753E-1,8.198396788E0
2.292939500E0,3.121837208E0,-8.573538423E0,1.800440291E-1,9.125998273E0
2.302905500E0,3.989269311E0,-8.750157080E0,1.626495858E-1,9.618002570E0
2.312872500E0,4.375101929E0,-8.415813289E0,3.142582398E-2,9.485168305E0
2.322839500E0,4.214633866E0,-7.340106872E0,-3.309293825E-2,8.464124448E0
2.332805500E0,3.696931332E0,-5.681119060E0,1.241901827E-1,6.779221065E0
2.342772500E0,3.250006421E0,-4.201643107E0,3.261857557E-1,5.321911656E0
2.352739500E0,2.979633508E0,-2.949178285E0,5.027564657E-1,4.222396531E0
2.362705500E0,2.882089671E0,-1.888758829E0,6.020258152E-1,3.498040290E0
2.372672500E0,2.959253622E0,-1.054383960E0,6.593028009E-1,3.209920204E0
2.382639500E0,3.184237524E0,-3.779651892E-1,6.853819674E-1,3.279020392E0
2.392605500E0,3.406474403E0,2.870731455E-1,6.485649741E-1,3.479528039E0
2.402572500E0,3.577232981E0,9.998651057E-1,5.271989965E-1,3.751568313E0
2.412539500E0,3.567128407E0,1.808723896E0,4.734069514E-1,4.027406280E0
2.422505500E0,3.441278200E0,2.568209381E0,4.781812030E-1,4.320503714E0
2.432472500E0,3.255668280E0,3.217657285E0,5.064986837E-1,4.605348550E0
2.442439500E0,3.009455477E0,3.757147129E0,5.064179921E-1,4.840396264E0
2.452405500E0,2.730619889E0,4.143482022E0,4.247376885E-1,4.980474912E0
2.462372500E0,2.423260413E0,4.462066398E0,3.092218137E-1,5.087027197E0
2.472339500E0,2.096598694E0,4.595893376E0,2.076726713E-1,5.055797657E0
2.482305500E0,1.808888202E0,4.511315156E0,1.657819758E-1,4.863283318E0
2.492272500E0,1.562900518E0,4.400559536E0,1.274645869E-1,4.671598172E0
2.502239500E0,1.375676181E0,4.368677593E0,1.185943608E-1,4.581691117E0
2.512205500E0,1.247318687E0,4.305764476E0,8.704399109E-2,4.483635610E0
2.522172500E0,1.043271326E0,4.233485874E0,1.174769579E-1,4.361721970E0
2.532139500E0,8.506383151E-1,4.128662839E0,1.809000250E-1,4.219261452E0
2.542105500E0,7.588364446E-1,3.996736790E0,2.841255641E-1,4.078046720E0
2.552072500E0,6.815298218E-1,3.895586976E0,5.110899540E-1,3.987642628E0
2.562039500E0,7.189794838E-1,3.818872676E0,8.594722885E-1,3.979875956E0
2.572005500E0,1.023911780E0,3.615814664E0,1.215135028E0,3.949565059E0
2.581972500E0,1.280589345E0,3.390150731E0,1.622027562E0,3.970390971E0
2.591938500E0,1.548668395E0,3.122047123E0,2.044201210E0,4.040335459E0
2.601905500E0,1.957225047E0,2.700582157E0,2.414054557E0,4.117223977E0
2.611872500E0,2.348358750E0,2.293886089E0,2.864184912E0,4.356633726E0
2.621838500E0,2.879129811E0,1.937166173E0,3.289416654E0,4.781449903E0
2.631805500E0,3.642417741E0,1.479192363E0,3.655485098E0,5.368220222E0
2.641772500E0,4.476730630E0,1.057673603E0,3.994248215E0,6.092110421E0
2.651738500E0,5.345484788E0,6.963156760E-1,4.298022763E0,6.894350064E0
2.661705500E0,6.335124283E0,4.354661232E-1,4.537648677E0,7.804722029E0
2.671672500E0,7.463170881E0,1.616065156E-1,4.676484965E0,8.808776754E0
2.681638500E0,8.688021643E0,-1.806660998E-1,4.697386422E0,9.878248807E0
2.691605500E0,9.680504054E0,-2.303136384E-1,4.739947135E0,1.078110857E1
2.701572500E0,1.054003774E1,-6.475089669E-2,4.858824538E0,1.160623815E1
2.711538500E0,1.125412427E1,2.765358782E-1,4.987159227E0,1.231273903E1
